        W95Ni7Fe3                                                               
 
        Constituents (Atomic Number:Fraction by Weight)
          26:0.02857  28:0.06667  74:0.90476
 
        Partial Interaction Coefficients and Total Attenuation Coefficients
 
         PHOTON       SCATTERING       PHOTO-     PAIR PRODUCTION    TOTAL ATTENUATION
         ENERGY   COHERENT  INCOHER.  ELECTRIC     IN        IN        WITH    WITHOUT
                                     ABSORPTION  NUCLEAR  ELECTRON   COHERENT  COHERENT
                                                  FIELD     FIELD     SCATT.    SCATT.
          (MeV)    (cm2/g)   (cm2/g)   (cm2/g)   (cm2/g)   (cm2/g)   (cm2/g)   (cm2/g)
 
        1.000E-03 1.082E+01 4.698E-03 4.238E+03 0.000E+00 0.000E+00 4.249E+03 4.238E+03
        1.004E-03 1.082E+01 4.725E-03 4.202E+03 0.000E+00 0.000E+00 4.213E+03 4.202E+03
        1.008E-03 1.081E+01 4.753E-03 4.167E+03 0.000E+00 0.000E+00 4.178E+03 4.167E+03
 
 28 L1  1.008E-03 1.081E+01 4.753E-03 4.256E+03 0.000E+00 0.000E+00 4.267E+03 4.256E+03
        1.500E-03 1.036E+01 8.163E-03 1.856E+03 0.000E+00 0.000E+00 1.866E+03 1.856E+03
        1.809E-03 1.005E+01 1.020E-02 1.228E+03 0.000E+00 0.000E+00 1.238E+03 1.228E+03
 
 74 M5  1.809E-03 1.005E+01 1.020E-02 1.416E+03 0.000E+00 0.000E+00 1.426E+03 1.416E+03
        1.840E-03 1.001E+01 1.040E-02 1.973E+03 0.000E+00 0.000E+00 1.983E+03 1.973E+03
        1.872E-03 9.980E+00 1.060E-02 2.799E+03 0.000E+00 0.000E+00 2.809E+03 2.799E+03
 
 74 M4  1.872E-03 9.980E+00 1.060E-02 3.032E+03 0.000E+00 0.000E+00 3.042E+03 3.032E+03
        2.000E-03 9.845E+00 1.144E-02 3.721E+03 0.000E+00 0.000E+00 3.731E+03 3.721E+03
        2.281E-03 9.547E+00 1.324E-02 2.679E+03 0.000E+00 0.000E+00 2.688E+03 2.679E+03
 
 74 M3  2.281E-03 9.547E+00 1.324E-02 3.087E+03 0.000E+00 0.000E+00 3.097E+03 3.087E+03
        2.423E-03 9.406E+00 1.413E-02 2.663E+03 0.000E+00 0.000E+00 2.673E+03 2.663E+03
        2.575E-03 9.257E+00 1.506E-02 2.298E+03 0.000E+00 0.000E+00 2.307E+03 2.298E+03
 
 74 M2  2.575E-03 9.257E+00 1.506E-02 2.436E+03 0.000E+00 0.000E+00 2.446E+03 2.436E+03
        2.694E-03 9.136E+00 1.581E-02 2.190E+03 0.000E+00 0.000E+00 2.199E+03 2.190E+03
        2.820E-03 9.006E+00 1.658E-02 1.969E+03 0.000E+00 0.000E+00 1.978E+03 1.969E+03
 
 74 M1  2.820E-03 9.006E+00 1.658E-02 2.050E+03 0.000E+00 0.000E+00 2.059E+03 2.050E+03
        3.000E-03 8.822E+00 1.769E-02 1.775E+03 0.000E+00 0.000E+00 1.784E+03 1.775E+03
        4.000E-03 7.873E+00 2.364E-02 8.866E+02 0.000E+00 0.000E+00 8.945E+02 8.866E+02
        5.000E-03 7.026E+00 2.926E-02 5.094E+02 0.000E+00 0.000E+00 5.165E+02 5.095E+02
        6.000E-03 6.278E+00 3.450E-02 3.212E+02 0.000E+00 0.000E+00 3.275E+02 3.213E+02
        7.112E-03 5.562E+00 3.983E-02 2.077E+02 0.000E+00 0.000E+00 2.133E+02 2.077E+02
 
 26 K   7.112E-03 5.562E+00 3.983E-02 2.178E+02 0.000E+00 0.000E+00 2.234E+02 2.178E+02
        8.000E-03 5.067E+00 4.370E-02 1.612E+02 0.000E+00 0.000E+00 1.663E+02 1.612E+02
        8.333E-03 4.896E+00 4.507E-02 1.450E+02 0.000E+00 0.000E+00 1.499E+02 1.450E+02
 
 28 K   8.333E-03 4.896E+00 4.507E-02 1.640E+02 0.000E+00 0.000E+00 1.689E+02 1.640E+02
        1.000E-02 4.153E+00 5.137E-02 1.023E+02 0.000E+00 0.000E+00 1.065E+02 1.023E+02
        1.021E-02 4.073E+00 5.210E-02 9.695E+01 0.000E+00 0.000E+00 1.011E+02 9.700E+01
 
 74 L3  1.021E-02 4.073E+00 5.210E-02 2.249E+02 0.000E+00 0.000E+00 2.290E+02 2.249E+02
        1.085E-02 3.833E+00 5.429E-02 1.909E+02 0.000E+00 0.000E+00 1.948E+02 1.910E+02
        1.154E-02 3.599E+00 5.650E-02 1.620E+02 0.000E+00 0.000E+00 1.657E+02 1.621E+02
 
 74 L2  1.154E-02 3.599E+00 5.650E-02 2.184E+02 0.000E+00 0.000E+00 2.221E+02 2.185E+02
 
        W95Ni7Fe3                                                               
 
        Constituents (Atomic Number:Fraction by Weight)
          26:0.02857  28:0.06667  74:0.90476
 
        Partial Interaction Coefficients and Total Attenuation Coefficients
 
         PHOTON       SCATTERING       PHOTO-     PAIR PRODUCTION    TOTAL ATTENUATION
         ENERGY   COHERENT  INCOHER.  ELECTRIC     IN        IN        WITH    WITHOUT
                                     ABSORPTION  NUCLEAR  ELECTRON   COHERENT  COHERENT
                                                  FIELD     FIELD     SCATT.    SCATT.
          (MeV)    (cm2/g)   (cm2/g)   (cm2/g)   (cm2/g)   (cm2/g)   (cm2/g)   (cm2/g)
 
        1.182E-02 3.513E+00 5.734E-02 2.063E+02 0.000E+00 0.000E+00 2.098E+02 2.063E+02
        1.210E-02 3.427E+00 5.817E-02 1.947E+02 0.000E+00 0.000E+00 1.982E+02 1.948E+02
 
 74 L1  1.210E-02 3.427E+00 5.817E-02 2.234E+02 0.000E+00 0.000E+00 2.269E+02 2.234E+02
        1.500E-02 2.690E+00 6.601E-02 1.293E+02 0.000E+00 0.000E+00 1.320E+02 1.293E+02
        2.000E-02 1.896E+00 7.664E-02 6.037E+01 0.000E+00 0.000E+00 6.234E+01 6.045E+01
        3.000E-02 1.119E+00 9.055E-02 2.028E+01 0.000E+00 0.000E+00 2.149E+01 2.037E+01
        4.000E-02 7.371E-01 9.816E-02 9.228E+00 0.000E+00 0.000E+00 1.006E+01 9.326E+00
        5.000E-02 5.211E-01 1.023E-01 4.981E+00 0.000E+00 0.000E+00 5.604E+00 5.083E+00
        6.000E-02 3.902E-01 1.044E-01 3.000E+00 0.000E+00 0.000E+00 3.494E+00 3.104E+00
        6.953E-02 3.078E-01 1.054E-01 1.988E+00 0.000E+00 0.000E+00 2.401E+00 2.093E+00
 
 74 K   6.953E-02 3.078E-01 1.054E-01 9.843E+00 0.000E+00 0.000E+00 1.026E+01 9.948E+00
        8.000E-02 2.450E-01 1.057E-01 6.780E+00 0.000E+00 0.000E+00 7.131E+00 6.886E+00
        1.000E-01 1.682E-01 1.048E-01 3.782E+00 0.000E+00 0.000E+00 4.055E+00 3.886E+00
        1.500E-01 8.220E-02 9.971E-02 1.269E+00 0.000E+00 0.000E+00 1.451E+00 1.369E+00
        2.000E-01 4.896E-02 9.388E-02 5.816E-01 0.000E+00 0.000E+00 7.245E-01 6.755E-01
        3.000E-01 2.323E-02 8.377E-02 1.968E-01 0.000E+00 0.000E+00 3.038E-01 2.806E-01
        4.000E-01 1.350E-02 7.601E-02 9.382E-02 0.000E+00 0.000E+00 1.833E-01 1.698E-01
        5.000E-01 8.812E-03 6.993E-02 5.415E-02 0.000E+00 0.000E+00 1.329E-01 1.241E-01
        6.000E-01 6.198E-03 6.500E-02 3.519E-02 0.000E+00 0.000E+00 1.064E-01 1.002E-01
        8.000E-01 3.543E-03 5.740E-02 1.854E-02 0.000E+00 0.000E+00 7.949E-02 7.595E-02
        1.000E+00 2.288E-03 5.176E-02 1.165E-02 0.000E+00 0.000E+00 6.569E-02 6.341E-02
        1.022E+00 2.192E-03 5.119E-02 1.115E-02 0.000E+00 0.000E+00 6.453E-02 6.234E-02
        1.250E+00 1.474E-03 4.635E-02 7.519E-03 2.993E-04 0.000E+00 5.564E-02 5.417E-02
        1.500E+00 1.028E-03 4.218E-02 5.363E-03 1.404E-03 0.000E+00 4.998E-02 4.895E-02
        2.000E+00 5.810E-04 3.605E-02 3.245E-03 4.378E-03 0.000E+00 4.425E-02 4.367E-02
        2.044E+00 5.562E-04 3.561E-02 3.132E-03 4.646E-03 0.000E+00 4.395E-02 4.339E-02
        3.000E+00 2.591E-04 2.838E-02 1.703E-03 1.004E-02 9.922E-06 4.040E-02 4.014E-02
        4.000E+00 1.459E-04 2.369E-02 1.118E-03 1.478E-02 4.045E-05 3.977E-02 3.963E-02
        5.000E+00 9.345E-05 2.046E-02 8.215E-04 1.876E-02 8.048E-05 4.022E-02 4.012E-02
        6.000E+00 6.493E-05 1.809E-02 6.448E-04 2.219E-02 1.234E-04 4.111E-02 4.104E-02
        7.000E+00 4.769E-05 1.626E-02 5.288E-04 2.521E-02 1.661E-04 4.222E-02 4.217E-02
        8.000E+00 3.653E-05 1.480E-02 4.473E-04 2.793E-02 2.074E-04 4.343E-02 4.339E-02
        9.000E+00 2.887E-05 1.360E-02 3.869E-04 3.041E-02 2.469E-04 4.468E-02 4.465E-02
        1.000E+01 2.338E-05 1.261E-02 3.404E-04 3.267E-02 2.843E-04 4.593E-02 4.591E-02
        1.100E+01 1.932E-05 1.176E-02 3.038E-04 3.477E-02 3.197E-04 4.717E-02 4.715E-02
        1.200E+01 1.624E-05 1.103E-02 2.743E-04 3.673E-02 3.530E-04 4.840E-02 4.839E-02
        1.300E+01 1.384E-05 1.039E-02 2.499E-04 3.854E-02 3.844E-04 4.958E-02 4.957E-02
        1.400E+01 1.193E-05 9.829E-03 2.294E-04 4.026E-02 4.141E-04 5.074E-02 5.073E-02
        1.500E+01 1.039E-05 9.329E-03 2.119E-04 4.182E-02 4.422E-04 5.181E-02 5.180E-02
        1.600E+01 9.136E-06 8.887E-03 1.969E-04 4.332E-02 4.690E-04 5.288E-02 5.287E-02
        1.800E+01 7.219E-06 8.120E-03 1.725E-04 4.597E-02 5.185E-04 5.479E-02 5.478E-02
        2.000E+01 5.846E-06 7.488E-03 1.534E-04 4.834E-02 5.634E-04 5.655E-02 5.655E-02
 
        W95Ni7Fe3                                                               
 
        Constituents (Atomic Number:Fraction by Weight)
          26:0.02857  28:0.06667  74:0.90476
 
        Partial Interaction Coefficients and Total Attenuation Coefficients
 
         PHOTON       SCATTERING       PHOTO-     PAIR PRODUCTION    TOTAL ATTENUATION
         ENERGY   COHERENT  INCOHER.  ELECTRIC     IN        IN        WITH    WITHOUT
                                     ABSORPTION  NUCLEAR  ELECTRON   COHERENT  COHERENT
                                                  FIELD     FIELD     SCATT.    SCATT.
          (MeV)    (cm2/g)   (cm2/g)   (cm2/g)   (cm2/g)   (cm2/g)   (cm2/g)   (cm2/g)
 
        2.200E+01 4.833E-06 6.958E-03 1.380E-04 5.050E-02 6.045E-04 5.820E-02 5.820E-02
        2.400E+01 4.061E-06 6.501E-03 1.255E-04 5.247E-02 6.421E-04 5.974E-02 5.974E-02
        2.600E+01 3.460E-06 6.105E-03 1.150E-04 5.425E-02 6.766E-04 6.115E-02 6.114E-02
        2.800E+01 2.983E-06 5.759E-03 1.061E-04 5.590E-02 7.089E-04 6.248E-02 6.248E-02
        3.000E+01 2.599E-06 5.452E-03 9.852E-05 5.740E-02 7.387E-04 6.369E-02 6.369E-02
        4.000E+01 1.462E-06 4.333E-03 7.251E-05 6.359E-02 8.615E-04 6.885E-02 6.885E-02
        5.000E+01 9.357E-07 3.617E-03 5.736E-05 6.818E-02 9.541E-04 7.281E-02 7.281E-02
        6.000E+01 6.496E-07 3.116E-03 4.742E-05 7.174E-02 1.027E-03 7.593E-02 7.593E-02
        8.000E+01 3.653E-07 2.458E-03 3.521E-05 7.700E-02 1.137E-03 8.063E-02 8.062E-02
        1.000E+02 2.339E-07 2.040E-03 2.801E-05 8.069E-02 1.216E-03 8.397E-02 8.397E-02
        1.500E+02 1.039E-07 1.453E-03 1.853E-05 8.655E-02 1.346E-03 8.936E-02 8.936E-02
        2.000E+02 5.846E-08 1.139E-03 1.384E-05 9.003E-02 1.426E-03 9.261E-02 9.261E-02
        3.000E+02 2.599E-08 8.074E-04 9.189E-06 9.404E-02 1.524E-03 9.638E-02 9.638E-02
        4.000E+02 1.462E-08 6.322E-04 6.879E-06 9.636E-02 1.582E-03 9.858E-02 9.858E-02
        5.000E+02 9.357E-09 5.233E-04 5.495E-06 9.787E-02 1.622E-03 1.000E-01 1.000E-01
        6.000E+02 6.496E-09 4.480E-04 4.575E-06 9.894E-02 1.651E-03 1.010E-01 1.010E-01
        8.000E+02 3.653E-09 3.500E-04 3.429E-06 1.004E-01 1.691E-03 1.024E-01 1.024E-01
        1.000E+03 2.339E-09 2.879E-04 2.741E-06 1.013E-01 1.718E-03 1.033E-01 1.033E-01
        1.500E+03 1.039E-09 2.011E-04 1.826E-06 1.026E-01 1.757E-03 1.046E-01 1.046E-01
        2.000E+03 5.846E-10 1.556E-04 1.369E-06 1.034E-01 1.780E-03 1.053E-01 1.053E-01
        3.000E+03 2.599E-10 1.082E-04 9.124E-07 1.042E-01 1.804E-03 1.061E-01 1.061E-01
        4.000E+03 1.462E-10 8.353E-05 6.840E-07 1.046E-01 1.818E-03 1.065E-01 1.065E-01
        5.000E+03 9.357E-11 6.828E-05 5.471E-07 1.049E-01 1.827E-03 1.068E-01 1.068E-01
        6.000E+03 6.496E-11 5.792E-05 4.560E-07 1.050E-01 1.833E-03 1.069E-01 1.069E-01
        8.000E+03 3.653E-11 4.463E-05 3.420E-07 1.053E-01 1.841E-03 1.072E-01 1.072E-01
        1.000E+04 2.339E-11 3.644E-05 2.735E-07 1.054E-01 1.847E-03 1.073E-01 1.073E-01
        1.500E+04 1.039E-11 2.518E-05 1.824E-07 1.057E-01 1.853E-03 1.075E-01 1.075E-01
        2.000E+04 5.846E-12 1.935E-05 1.368E-07 1.058E-01 1.858E-03 1.077E-01 1.077E-01
        3.000E+04 2.599E-12 1.335E-05 9.118E-08 1.059E-01 1.861E-03 1.078E-01 1.078E-01
        4.000E+04 1.462E-12 1.025E-05 6.838E-08 1.059E-01 1.864E-03 1.078E-01 1.078E-01
        5.000E+04 9.357E-13 8.347E-06 5.471E-08 1.060E-01 1.866E-03 1.079E-01 1.079E-01
        6.000E+04 6.496E-13 7.054E-06 4.557E-08 1.060E-01 1.866E-03 1.079E-01 1.079E-01
        8.000E+04 3.653E-13 5.409E-06 3.417E-08 1.061E-01 1.867E-03 1.079E-01 1.079E-01
        1.000E+05 2.339E-13 4.400E-06 2.735E-08 1.061E-01 1.868E-03 1.079E-01 1.079E-01
